place_index,latitude,longitude,Area
1,12.945545074800767,77.66663223781306,Koramangala
2,12.936780948546222,77.63921392094329,Koramangala
3,12.897281537056575,77.58707022119732,JP Nagar
4,12.999939138119018,77.6633450772584,Krishnarajapura
5,12.951976674398566,77.62909968163186,Koramangala
6,12.937680542347477,77.63696933786302,Koramangala
7,12.927710565038184,77.63140422944184,HSR Layout
8,12.955585353089303,77.68615529473153,Koramangala
9,12.939943555768947,77.63683096567584,Koramangala
10,12.886193398903734,77.54003457453281,JP Nagar
11,12.887164899275982,77.65091102466238,HSR Layout
12,12.876918560290289,77.53829577601417,JP Nagar
13,12.912860645309712,77.56223527311128,JP Nagar
14,13.015414304777783,77.6770318359924,Krishnarajapura
15,12.950273476735918,77.6895311104973,Koramangala
16,12.917633933304122,77.68248322196156,HSR Layout
17,12.962298844988828,77.70180843136133,Marathahalli
18,12.993112745804169,77.72489684103421,Krishnarajapura
19,12.854370863466126,77.5803151546785,JP Nagar
20,12.94071294040664,77.62960849376798,Koramangala
21,12.93567354464458,77.66803811199459,Marathahalli
22,12.93186155246377,77.6526516802741,HSR Layout
23,12.916266709973176,77.65542542808798,HSR Layout
24,12.907719126320487,77.63952073572301,HSR Layout
25,12.942866895016481,77.60601617250465,Koramangala
26,12.945644315069725,77.65605784388495,Indiranagar
27,12.963237051694396,77.61573034254408,Koramangala
28,12.924524445410707,77.64596689387325,HSR Layout
29,12.900629271059577,77.67122972294119,HSR Layout
30,12.882770508704862,77.5793384847125,JP Nagar
31,12.922307691125399,77.64670238740322,HSR Layout
32,12.924849907196704,77.59843796056893,Koramangala
33,12.921403266436391,77.62306955270645,Koramangala
34,12.946185229696944,77.71719672337885,Marathahalli
35,13.029345090375589,77.68789742995176,Krishnarajapura
36,12.85179876808434,77.7545120805321,Sarjapur
37,12.930492363096901,77.64781636755112,HSR Layout
38,12.928902308177296,77.67304434309025,Marathahalli
39,12.88387584682203,77.57718711643024,JP Nagar
40,12.964578243256229,77.67949358123047,Marathahalli
41,12.948670089977533,77.73102163053551,Varthur
42,12.918087804116105,77.6593386560541,Koramangala
43,12.977630541775959,77.68896028946845,Indiranagar
44,12.94482399985252,77.61947172596417,HSR Layout
45,12.898226243607082,77.62831454823062,HSR Layout
46,12.96166268014523,77.70027503990094,Marathahalli
47,12.851348602327956,77.79890163577967,Sarjapur
48,12.875336550238131,77.62431487625253,JP Nagar
49,12.918882408451253,77.63958851105431,Koramangala
50,12.863403009224418,77.55168674738803,JP Nagar
51,12.900277050623009,77.60542729968613,JP Nagar
52,12.944304740655335,77.63984652136935,Koramangala
53,12.855650179357003,77.79733865272357,Sarjapur
54,12.869779710035113,77.77759151442616,Sarjapur
55,12.8729431014644,77.59363614197875,JP Nagar
56,12.88360215570968,77.62561910358222,JP Nagar
57,12.895497819918418,77.61399837625825,HSR Layout
58,12.929508038587988,77.64980093310518,Koramangala
59,12.890723289883526,77.56162355304646,JP Nagar
60,12.910074387523386,77.64105758309985,HSR Layout
61,12.957807493392433,77.67145488277089,Marathahalli
62,12.901664299659146,77.55725945846783,JP Nagar
63,12.905487153927412,77.59920346067511,JP Nagar
64,12.93883872842564,77.62782336124373,Koramangala
65,12.887530842517407,77.56876338640075,JP Nagar
66,12.919414921466933,77.6519669355025,HSR Layout
67,12.925303656038414,77.63964902602969,Koramangala
68,12.96264561439689,77.681132979621,Marathahalli
69,12.979128641562049,77.67174339119697,Krishnarajapura
70,12.946267035501725,77.64987809944347,Koramangala
71,12.941468288516003,77.64130687569077,Koramangala
72,12.925727997214691,77.65119551059358,HSR Layout
73,12.857120362451338,77.79611042815645,Sarjapur
74,12.94276622717773,77.63588573981177,Koramangala
75,12.912013961217012,77.76602588453314,Varthur
76,12.89383970672716,77.55741056614876,JP Nagar
77,12.845188634854923,77.8159731087995,Sarjapur
78,12.906069717864405,77.55850712923294,JP Nagar
79,12.902455553655058,77.65007164174,HSR Layout
80,12.913147434467312,77.65120553624084,Koramangala
81,12.886444248328992,77.58284356551809,JP Nagar
82,12.906684085823533,77.57738590136341,JP Nagar
83,12.897914036168801,77.60351511243897,JP Nagar
84,12.906124245701724,77.62758512742784,HSR Layout
85,12.969938837277526,77.6871311587049,Marathahalli
86,12.899885130384174,77.58087855992858,JP Nagar
87,12.922979500940704,77.64781783507748,Koramangala
88,13.01062673035042,77.68423818889812,Krishnarajapura
89,12.959977557061904,77.63447402798526,Koramangala
90,12.834976363524351,77.80023672845432,Sarjapur
91,12.9081506988816,77.57896577312209,Koramangala
92,12.885799723698778,77.63350061895805,HSR Layout
93,12.939289463559408,77.67063022343548,Koramangala
94,12.889274196565722,77.56784266389553,JP Nagar
95,13.007505429909266,77.71326558920975,Krishnarajapura
96,12.905254722932364,77.6403496321061,HSR Layout
97,12.90668956917396,77.56485829992587,JP Nagar
98,12.925895194553815,77.62606246802984,Koramangala
99,12.878852020481663,77.6022617819134,JP Nagar
100,12.992221000493046,77.68520127628138,Krishnarajapura
101,12.938173557979491,77.65408001756619,HSR Layout
102,12.926360811454892,77.61760551396763,Koramangala
103,12.987892296089905,77.69589887686101,Krishnarajapura
104,12.939864742788295,77.63865195263867,Koramangala
105,12.925356808098925,77.64845205142315,HSR Layout
106,12.92607506628107,77.6335497200761,Koramangala
107,12.870824194169801,77.79005521363008,Sarjapur
108,12.876844980287945,77.64491213073671,HSR Layout
109,12.862408966278458,77.63012627262677,HSR Layout
110,12.897620524813473,77.65208477331358,HSR Layout
111,12.852060889786943,77.79723904918197,Sarjapur
112,12.84542138593323,77.77313402327789,Sarjapur
113,12.925979006229053,77.6327103783291,HSR Layout
114,12.886679587351775,77.58778809837759,JP Nagar
115,12.868370795733371,77.83394739671806,Sarjapur
116,12.972298402204983,77.68311828884042,Marathahalli
117,12.889767424889436,77.56577013527776,JP Nagar
118,12.880167642319826,77.80074719207552,Sarjapur
119,12.947337855328685,77.63460206132554,Marathahalli
120,12.917834780729578,77.63743423259432,Koramangala
121,12.848404896583009,77.76257582222395,Sarjapur
122,12.857319096866846,77.81325423660357,Sarjapur
123,12.942293475608933,77.61874091898946,Koramangala
124,12.886486212013152,77.61536954303313,HSR Layout
125,12.929849871893909,77.59357188527297,Koramangala
126,12.890229715208909,77.5825951491476,JP Nagar
127,13.002072069358592,77.63959419285962,Indiranagar
128,12.99844709552205,77.6859015163825,Marathahalli
129,12.965086374859224,77.70120514681156,Marathahalli
130,12.991301552261339,77.70289639029508,Krishnarajapura
131,12.909634707308399,77.56611338185964,JP Nagar
132,12.957347633194217,77.65438913153214,Indiranagar
133,12.92791304316274,77.63024749701627,Koramangala
134,12.930211838474678,77.66188767875435,Koramangala
135,12.855352599505059,77.55927277344784,JP Nagar
136,12.903892413674317,77.6304221307084,HSR Layout
137,12.83327937531664,77.84629489044804,Sarjapur
138,12.880932056828112,77.58467119781139,JP Nagar
139,12.906484519541616,77.55516542883282,JP Nagar
140,12.898569957988274,77.55510248620908,JP Nagar
141,12.911400113969767,77.66193531156496,HSR Layout
142,12.994415814836469,77.64259889268412,Indiranagar
143,12.877240852439616,77.56263542083038,JP Nagar
144,13.018494745963986,77.65833804551555,Krishnarajapura
145,12.878430381656528,77.54411244705165,JP Nagar
146,12.885479466655584,77.5597889250518,JP Nagar
147,12.945307640721811,77.65414165766974,Marathahalli
148,12.92908652850982,77.65361796106184,Koramangala
149,12.966112059705537,77.61888178766941,Koramangala
150,12.934739216162173,77.63883154081113,Koramangala
151,12.869962568624102,77.5651936800862,JP Nagar
152,12.906233313548427,77.58059170427008,JP Nagar
153,12.910097611300055,77.65844944793373,HSR Layout
154,12.908471260382711,77.66244136142497,HSR Layout
155,12.927734226060997,77.67712916063267,Marathahalli
156,12.911323422142779,77.6257932368591,HSR Layout
157,12.841993114447114,77.76655552632299,Sarjapur
158,12.907711978678677,77.60531108467404,JP Nagar
159,12.944933642386072,77.61499982201914,HSR Layout
160,12.892488012391983,77.6024095670794,JP Nagar
161,12.927277136717956,77.60044321786853,Koramangala
162,12.87728533636549,77.6548925212325,HSR Layout
163,12.948653401905316,77.71732479461164,Marathahalli
164,13.010149570368261,77.67754067646017,Krishnarajapura
165,12.945780090875553,77.67155317431552,Marathahalli
166,12.892913962152644,77.57329736410533,JP Nagar
167,12.897919362158557,77.57718314171338,JP Nagar
168,12.916078949583712,77.61780923700435,Koramangala
169,12.851384789159512,77.77574045165032,Sarjapur
170,12.9594234663221,77.68468929916583,Marathahalli
171,12.871900223016873,77.77316582323714,Sarjapur
172,12.944004502297929,77.70504080728179,Marathahalli
173,12.895237944987729,77.59610667914268,JP Nagar
174,13.010104667781707,77.6896458089402,Krishnarajapura
175,12.903226733801338,77.54815754817467,JP Nagar
176,12.978814682022685,77.6912796510718,Marathahalli
177,12.99147986459097,77.69169558028959,Krishnarajapura
178,13.015636420882556,77.70386475261645,Krishnarajapura
179,12.902127466960042,77.57784169481735,JP Nagar
180,12.913148856028759,77.63151406040035,Koramangala
181,12.867939091821905,77.7541813282224,Sarjapur
182,12.955242894711152,77.72574444565547,Varthur
183,12.916971653861774,77.73427779320568,Varthur
184,12.867503643625561,77.7879319737546,Sarjapur
185,12.936298928748544,77.64459975988292,Koramangala
186,12.907363534232324,77.62332539316024,HSR Layout
187,12.927500239933954,77.63247259808426,Koramangala
188,12.928708976054187,77.61476189422002,Koramangala
189,12.999596127079952,77.65804700884676,Indiranagar
190,12.9179252802971,77.64148849961154,HSR Layout
191,13.015186548591155,77.70069708166439,Krishnarajapura
192,12.95890592601589,77.64491016912446,Indiranagar
193,12.918765153081935,77.60888566343664,Koramangala
194,12.954375235579164,77.70289534774169,Marathahalli
195,12.969377867814169,77.62541343276408,Koramangala
196,12.961493041508207,77.63880919420487,Koramangala
197,12.975701892200725,77.67810228951446,Indiranagar
198,12.843086926636559,77.76506428961099,Sarjapur
199,12.936673093687354,77.63661074194908,Koramangala
200,12.95926983741802,77.63613001981695,Koramangala
201,12.901725826863755,77.56839986745362,JP Nagar
202,12.843695093809117,77.78298759298046,Sarjapur
203,12.930610813558918,77.67857858310208,Koramangala
204,12.926161694078662,77.6185795728817,Koramangala
205,12.968266354447806,77.70402596772666,Marathahalli
206,12.8943047795962,77.63480859106498,HSR Layout
207,12.861450644272153,77.5736611975083,JP Nagar
208,12.941285320789452,77.63865349434752,Koramangala
209,12.96454768317072,77.71806626484619,Marathahalli
210,12.930774197992193,77.60917927859563,HSR Layout
211,12.923997868672222,77.61791154296137,Koramangala
212,12.928367149800646,77.73170747574693,Varthur
213,12.892757711725215,77.61118722095054,JP Nagar
214,12.962912781923077,77.68357508578661,Marathahalli
215,12.911070123714632,77.63154463384649,HSR Layout
216,12.956043373497701,77.65796484884089,Koramangala
217,12.926095499177713,77.61025690808418,Koramangala
218,12.841466889013796,77.79953647980648,Sarjapur
219,12.965815009661661,77.71881308948294,Marathahalli
220,12.87755032702921,77.57757637408668,JP Nagar
221,12.941964722419845,77.66772412350115,HSR Layout
222,12.866276959367458,77.77508373516883,Sarjapur
223,12.869752280900515,77.58976804372212,JP Nagar
224,12.90142271910636,77.66785210681007,HSR Layout
225,12.936398439653289,77.65914002964689,Koramangala
226,12.828718645713325,77.76572022636269,Sarjapur
227,12.892550187444792,77.56899609522898,JP Nagar
228,12.907912378226353,77.57644420883902,JP Nagar
229,12.894251769868392,77.63783852123252,HSR Layout
230,12.859047317016667,77.55881294562384,JP Nagar
231,12.881502021656765,77.78224103432646,Sarjapur
232,12.869089834007102,77.78799890181695,Sarjapur
233,12.87173623544557,77.57060561421684,JP Nagar
234,12.925815547084733,77.57938799141554,Koramangala
235,13.015093109028593,77.70242619569967,Krishnarajapura
236,12.86896681385223,77.7998538973023,Sarjapur
237,12.945849037133828,77.73985198507177,Marathahalli
238,12.886150646654139,77.67046051023055,HSR Layout
239,12.887947791772902,77.67477710915354,HSR Layout
240,12.9532872662476,77.71140623549063,Marathahalli
241,12.907019188473088,77.60708488139166,JP Nagar
242,12.870024825262227,77.74496879569641,Sarjapur
243,12.83882892716231,77.78760329898704,Sarjapur
244,12.886019184731836,77.60311586256695,JP Nagar
245,12.913108007777392,77.5624547927337,JP Nagar
246,12.951829169586183,77.6850261801079,Marathahalli
247,12.913360055933852,77.65005794751369,HSR Layout
248,12.967399771029058,77.69197513432009,Marathahalli
249,13.008644575669246,77.71806119269627,Krishnarajapura
250,12.975847605884931,77.64439991955285,Indiranagar
251,12.91994122586061,77.6026884231325,Koramangala
252,12.93886583999463,77.60221670783238,Koramangala
253,12.936654546761298,77.60350662994193,Koramangala
254,12.916941470006662,77.64110205838996,Koramangala
255,12.852309804417438,77.75246975985115,Sarjapur
256,12.9451594710288,77.60930044004144,Koramangala
257,12.870804952199856,77.58793788775166,JP Nagar
258,12.91417797687518,77.61888036623905,Koramangala
259,12.97863435589304,77.70745405137168,Marathahalli
260,12.936756471981868,77.61816542330834,Koramangala
261,12.940563748628618,77.70259478644562,Marathahalli
262,12.996395888414131,77.69683735044343,Krishnarajapura
263,12.987828763665433,77.61199781404477,Indiranagar
264,12.869804320703015,77.65125083650946,HSR Layout
265,12.965343815408769,77.67877933068635,Marathahalli
266,12.903710324838933,77.57307964824328,JP Nagar
267,12.942891321771242,77.72904495798494,Marathahalli
268,12.934011434208225,77.66609040363855,HSR Layout
269,12.915803288439689,77.62249608997845,HSR Layout
270,12.886436483947127,77.57923109289727,JP Nagar
271,12.877034982529649,77.5728310053531,JP Nagar
272,12.930600040872394,77.64831230296913,Koramangala
273,12.902770245857896,77.59296779597551,Koramangala
274,12.850242164701456,77.7728180831472,Sarjapur
275,13.044815553470961,77.67714325318988,Krishnarajapura
276,12.864455475417682,77.55169127734335,JP Nagar
277,12.890591894144729,77.6229382314845,JP Nagar
278,13.019373496738814,77.69154109679434,Krishnarajapura
279,12.91270394822215,77.56741504682216,JP Nagar
280,12.857728032978526,77.80933030696862,Sarjapur
281,12.8634149053164,77.5873056742008,JP Nagar
282,12.9215676621816,77.6364576141261,HSR Layout
283,12.873916183895965,77.60787517437548,JP Nagar
284,12.873647930272018,77.56786600519506,JP Nagar
285,13.01716121288386,77.68109377314757,Krishnarajapura
286,13.0278797770569,77.67723971321617,Krishnarajapura
287,12.861838636719282,77.76863464201095,Sarjapur
288,12.862056578249078,77.80178174106055,Sarjapur
289,12.945949152327792,77.61900841776809,Koramangala
290,12.908559622556437,77.74559269950166,Varthur
291,12.919657587499648,77.60923608746843,Koramangala
292,12.957389384560646,77.707417162964,Marathahalli
293,12.935723195026865,77.64275789551158,HSR Layout
294,12.908585981861886,77.58635447052241,JP Nagar
295,12.92020569858794,77.5958037849382,JP Nagar
296,12.929726261732986,77.64433241472139,HSR Layout
297,12.950575619612344,77.64212195933888,Koramangala
298,12.906953477234913,77.65157136484515,HSR Layout
299,12.976184392864793,77.68779321775446,Marathahalli
300,12.886958001442288,77.57897997429346,JP Nagar
301,12.938806820264515,77.62734726258196,Koramangala
302,12.876195245959643,77.83161372599693,Sarjapur
303,12.890860126776994,77.56980335578369,JP Nagar
304,12.884718198571827,77.53826929638542,JP Nagar
305,12.915735553036358,77.64756937053937,HSR Layout
306,12.911633139605422,77.62144532893304,Koramangala
307,13.007743591065047,77.68312249400678,Krishnarajapura
308,12.950066869038773,77.68958233150731,Marathahalli
309,12.953953435083863,77.61769275438093,Indiranagar
310,12.958470159118171,77.6154703573198,Indiranagar
311,12.880172614689112,77.60320661417165,JP Nagar
312,12.959554302774489,77.63911076397201,Koramangala
313,12.983412834752418,77.73331270308765,Marathahalli
314,12.949276442955076,77.63656437038443,Koramangala
315,12.958111655773493,77.64590861109501,Koramangala
316,12.932848539335943,77.729628119037,Varthur
317,12.889843910942968,77.60461025735255,JP Nagar
318,12.876351819521654,77.59842636148333,JP Nagar
319,12.86162431340936,77.82999922400944,Sarjapur
320,12.961934510667918,77.64889910549935,Indiranagar
321,12.894900665163973,77.62651589846064,HSR Layout
322,12.927121383507837,77.62747434591759,HSR Layout
323,12.909148769944203,77.6636079916287,HSR Layout
324,12.968895086579304,77.67664706328736,Marathahalli
325,12.878370702701474,77.55852920569788,JP Nagar
326,12.916843374913505,77.64287875584205,Koramangala
327,12.930448058842572,77.6679681802474,Koramangala
328,12.828862479430546,77.75657065210639,Sarjapur
329,12.856851334529177,77.78902378408172,Sarjapur
330,13.02011075488473,77.70411792531031,Krishnarajapura
331,12.89058359164505,77.61322906804173,JP Nagar
332,12.896685678508748,77.5742111519004,JP Nagar
333,12.849835090444811,77.76764367640268,Sarjapur
334,12.905944953373094,77.62418350656463,JP Nagar
335,12.940389338617502,77.69154612536826,Koramangala
336,12.918701642236845,77.64949471091735,HSR Layout
337,12.930592359160496,77.64908067543948,Koramangala
338,12.922866106158553,77.66278465018999,Koramangala
339,12.892265138961216,77.54939633349362,JP Nagar
340,12.871124622124979,77.5916664465363,JP Nagar
341,12.945684719746207,77.63284100500341,Koramangala
342,12.925162375443945,77.56603703117496,JP Nagar
343,12.9175068440204,77.61270098708667,Koramangala
344,12.926108362422573,77.64695186450056,Koramangala
345,12.981370041798957,77.68404748017466,Krishnarajapura
346,12.928380099341153,77.61275125561397,Koramangala
347,12.845638584843703,77.77720536267658,Sarjapur
348,12.934821884840224,77.65227263417732,Koramangala
349,12.984935951047069,77.68174995691838,Krishnarajapura
350,12.907901192375824,77.7709641489156,Varthur
351,12.943588369288253,77.68027483099604,Marathahalli
352,12.932540724297375,77.67454479410489,HSR Layout
353,12.93881328691115,77.57735023281589,Koramangala
354,12.900420281690607,77.57785857754737,JP Nagar
355,12.908206206753153,77.56367875023197,JP Nagar
356,12.926679905243365,77.67909075395701,HSR Layout
357,12.862401296850104,77.56247012335204,JP Nagar
358,12.89914957206197,77.6811592064987,HSR Layout
359,12.945812412046266,77.6979563659994,Marathahalli
360,12.870938307861433,77.80880153072967,Sarjapur
361,12.934873668519504,77.62463425029809,Koramangala
362,12.955434649349643,77.61031348743809,Koramangala
363,12.917956169019114,77.66816067372,HSR Layout
364,12.857992705217079,77.81464589946322,Sarjapur
365,12.906049116644233,77.62473576837169,HSR Layout
366,13.026624118199233,77.73010532131035,Krishnarajapura
367,12.878765015225786,77.5517432416932,JP Nagar
368,12.921401626861826,77.72000540349147,Marathahalli
369,12.943237564119935,77.6248058283508,Koramangala
370,12.958448507644206,77.64800547485241,Koramangala
371,12.997889289449926,77.64052571938265,Indiranagar
372,12.841545336152228,77.77885341297429,Sarjapur
373,12.871332585364792,77.53581974190833,JP Nagar
374,12.988209596136537,77.70498140213986,Krishnarajapura
375,12.933483312559169,77.63563840346502,Koramangala
376,12.93008008204756,77.62088721753807,Koramangala
377,12.90846752273758,77.65013552244753,HSR Layout
378,12.8972310210743,77.60276022213178,JP Nagar
379,12.949647609276234,77.71263309074938,Marathahalli
380,12.905977381324178,77.56030688907933,JP Nagar
381,12.919108379804424,77.6576812163043,HSR Layout
382,12.96598997454345,77.68571355981925,Marathahalli
383,12.960015383225112,77.74571647098188,Varthur
384,12.954842115074023,77.67189642301089,Marathahalli
385,12.937717670019651,77.64048916275836,Koramangala
386,12.869624679781323,77.59149594906964,JP Nagar
387,12.921059306988013,77.63438193676265,Koramangala
388,12.877838906926886,77.59865411837674,JP Nagar
389,12.945543595247287,77.6083958321362,Koramangala
390,12.959256877044771,77.6423321150177,Indiranagar
391,12.943884178091196,77.62971514813765,Koramangala
392,12.899061626149674,77.53454545632846,JP Nagar
393,12.909173400563565,77.62754454164381,HSR Layout
394,12.954447016798937,77.65536750859938,Koramangala
395,12.874779908301026,77.57262527584061,JP Nagar
396,12.947420500265034,77.73857430474077,Marathahalli
397,12.916029668447422,77.65361662019595,HSR Layout
398,12.972541478060702,77.6109805427382,Indiranagar
399,12.905716692822587,77.5900738200706,JP Nagar
400,12.886910442451342,77.62970828900895,HSR Layout
401,12.957395433847081,77.64519704159552,Marathahalli
402,13.00518996452812,77.69191545144706,Krishnarajapura
403,12.877361480530897,77.56874717895926,JP Nagar
404,12.944449462782023,77.73478889957491,Marathahalli
405,12.884924119009613,77.64427070159553,HSR Layout
406,12.885873885484417,77.62817504098672,Koramangala
407,12.884047172910755,77.58196237433503,JP Nagar
408,12.912172874027728,77.56116005306575,JP Nagar
409,12.93374372383505,77.66105072624997,Koramangala
410,12.866868862308877,77.55104243633092,JP Nagar
411,12.892919369757653,77.54262175229738,JP Nagar
412,12.889544485522578,77.5919949713366,JP Nagar
413,12.911111777597135,77.60837561151814,JP Nagar
414,12.902579660858857,77.6395941310127,HSR Layout
415,12.954603128124473,77.62842928357023,Koramangala
416,12.935549671783177,77.71703120312644,Marathahalli
417,12.867091136435533,77.76626195308712,Sarjapur
418,12.892515280296669,77.5955407329019,JP Nagar
419,12.943579444812404,77.60169817863469,Koramangala
420,12.976915777086958,77.70055969694533,Marathahalli
421,12.885544088831839,77.63987275379884,JP Nagar
422,12.936653618094136,77.59312857073098,Koramangala
423,13.004500272064924,77.68175556425629,Indiranagar
424,12.936374312530093,77.68562638679843,Marathahalli
425,12.921974869922257,77.58231280917609,JP Nagar
426,12.916990572352821,77.64254781078968,HSR Layout
427,12.932018656925113,77.58731697082347,Koramangala
428,13.03414653029527,77.67715872326342,Krishnarajapura
429,12.896172254711262,77.60498078246793,Koramangala
430,12.922490321221215,77.73330042291758,Varthur
431,12.964610773199997,77.6854055864061,Marathahalli
432,12.851569458400403,77.61422636000684,JP Nagar
433,12.934646243834763,77.73007700975117,Varthur
434,12.857519244611279,77.80064830128447,Sarjapur
435,12.932608611324456,77.6436463431589,HSR Layout
436,12.92896010853938,77.63529057082542,HSR Layout
437,12.97443560638125,77.68336612585584,Krishnarajapura
438,12.895350997017523,77.5551217457435,JP Nagar
439,12.934903909860761,77.62162061005209,HSR Layout
440,12.969868026577084,77.70360206001949,Marathahalli
441,12.966928938311263,77.69202424011826,Marathahalli
442,12.911923858662702,77.56596067863244,JP Nagar
443,12.970890546191,77.65059010349152,Indiranagar
444,12.937770494002113,77.62858570361831,Koramangala
445,12.92955994186313,77.62940292884399,Koramangala
446,12.868625146027417,77.80136190767863,Sarjapur
447,12.886463308932909,77.57494936548989,JP Nagar
448,12.931365440955881,77.61870301019994,Koramangala
449,12.871186322161641,77.62570187187103,HSR Layout
450,13.010486167208406,77.61708166911554,Indiranagar
451,12.89506677057972,77.58606915364217,JP Nagar
452,12.886046322633565,77.59139799589515,JP Nagar
453,12.918241566496437,77.66519944873929,HSR Layout
454,12.959086266208104,77.69611095680128,Marathahalli
455,12.880722936119646,77.55665540892149,JP Nagar
456,12.979883548852236,77.67393791698,Marathahalli
457,12.915087318608101,77.64884256034466,HSR Layout
458,12.935475159560633,77.70592549549147,Marathahalli
459,12.833717664461126,77.80047492784338,Sarjapur
460,12.947711787930523,77.7169654665383,Marathahalli
461,12.904465311945776,77.64423178440532,Koramangala
462,12.919975801430796,77.69166018514584,HSR Layout
463,12.886878156066052,77.59524016735506,JP Nagar
464,12.887486730998003,77.58892029054036,JP Nagar
465,13.031462903037543,77.66436069896177,Krishnarajapura
466,12.910988374144473,77.66086125407004,HSR Layout
467,12.946904157618313,77.62588167447998,Koramangala
468,12.935608305716832,77.61082749627205,Koramangala
469,12.925054865524354,77.65609798492805,HSR Layout
470,12.910123583502303,77.682450441162,HSR Layout
471,12.844789583425934,77.77666770059594,Sarjapur
472,12.90310695533713,77.63644263723896,HSR Layout
473,12.944592914317218,77.61736888102402,Koramangala
474,12.968110798914289,77.66852311780052,Indiranagar
475,12.890536960508708,77.58077832890538,JP Nagar
476,12.97927093063597,77.64130769471262,Indiranagar
477,12.894864008887414,77.56610423011979,JP Nagar
478,12.88575864379683,77.5693798655499,JP Nagar
479,12.964692880875107,77.70328154242253,Marathahalli
480,12.972480776262922,77.71902952487069,Marathahalli
481,12.945371833144934,77.63077877048742,Koramangala
482,12.865849863986712,77.58790585863412,JP Nagar
483,12.933648413259123,77.62271087151834,Koramangala
484,12.932221562806811,77.6748853430656,HSR Layout
485,12.951943033510286,77.72972068917227,Varthur
486,12.941175492355587,77.64066963940125,HSR Layout
487,12.86748585872877,77.78353969299916,Sarjapur
488,12.89942896705659,77.66218184209521,HSR Layout
489,12.938445959860331,77.60224369442669,Koramangala
490,12.90703748826033,77.65567477043896,HSR Layout
491,12.855072583303972,77.58196735207098,JP Nagar
492,12.881964011825268,77.57010873162055,JP Nagar
493,12.819886335784831,77.771159091935,Sarjapur
494,12.840474841134277,77.75024848707022,Sarjapur
495,12.951182315738821,77.58591309217388,Koramangala
496,12.933305984805267,77.62343644751044,Koramangala
497,12.910578797156859,77.63702858060076,Koramangala
498,12.964317263249487,77.68822640068188,Marathahalli
499,13.026717382141783,77.71105310452815,Krishnarajapura
500,12.894801868310859,77.61403441642385,JP Nagar
501,12.920408540017663,77.6184732909701,Koramangala
502,12.94612222875746,77.64996115533604,Indiranagar
503,12.941219621483647,77.63647699345445,Koramangala
504,12.960623444949798,77.69261874547836,Marathahalli
505,12.908711445582508,77.55917034335958,JP Nagar
506,13.012757194086385,77.6922424988322,Krishnarajapura
507,12.890424472336717,77.57861388678086,JP Nagar
508,13.02125942848709,77.6635295899298,Krishnarajapura
509,13.020953263934539,77.69560522934565,Krishnarajapura
510,13.00319908547908,77.72962845448751,Krishnarajapura
511,12.883140041591728,77.59904116960152,HSR Layout
512,12.933166775291264,77.62382311838145,Koramangala
513,12.996538366058292,77.69959900133608,Krishnarajapura
514,12.95740985405999,77.6774035953707,Marathahalli
515,12.895169035368767,77.59601536771166,JP Nagar
516,12.93786797111714,77.7013532198633,Marathahalli
517,13.005674446806887,77.69252869054793,Krishnarajapura
518,12.858731101593646,77.80855523790734,Sarjapur
519,12.864972483747176,77.79784358215305,Sarjapur
520,12.86315734819573,77.81966570051019,Sarjapur
521,12.9578928065337,77.70951117478178,Marathahalli
522,12.936102934620697,77.64153528044315,Indiranagar
523,12.929244769381208,77.64517004356755,Koramangala
524,12.883438953181898,77.55528786305538,JP Nagar
525,13.003388744223452,77.64013439697133,Krishnarajapura
526,12.874231312305985,77.79522453574975,Sarjapur
527,12.91447763567689,77.6816876669936,HSR Layout
528,12.89430175284092,77.56763411833748,JP Nagar
529,12.98651514107332,77.69861809298888,Krishnarajapura
530,12.962483279644948,77.70605548678131,Marathahalli
531,12.970378528141193,77.62225808344665,Indiranagar
532,12.925751511164284,77.64733203229459,HSR Layout
533,12.976064194525865,77.73987298516846,Varthur
534,13.000457882511187,77.71618440442279,Krishnarajapura
535,12.922220235307668,77.65751861522183,HSR Layout
536,12.865488809418999,77.81704923274386,Sarjapur
537,12.868343827405944,77.78628937937927,Sarjapur
538,12.949781063439357,77.69979879943325,Marathahalli
539,12.987763395589575,77.62183050393962,Indiranagar
540,12.988744699515179,77.69085693117619,Krishnarajapura
541,12.85339359125804,77.80280451855384,Sarjapur
542,12.89143520245583,77.55938923501489,JP Nagar
543,12.945601008180265,77.62599483726775,Koramangala
544,12.863863852091107,77.77644253439051,Sarjapur
545,12.946926099063939,77.6426667054436,Koramangala
546,12.900033369896834,77.6738397439156,HSR Layout
547,12.954628074924045,77.62279241977498,Indiranagar
548,12.833077450292173,77.8069155399051,Sarjapur
549,12.98877385626511,77.6375784725544,Indiranagar
550,12.918103015526219,77.59572475508926,Koramangala
551,12.836855528157049,77.81493885445533,Sarjapur
552,12.926071236510355,77.64883360465592,Koramangala
553,12.957551127197819,77.73380762254334,Marathahalli
554,12.920434247860328,77.64879513360792,HSR Layout
555,12.94891538067749,77.62512233425483,Koramangala
556,12.96120285097616,77.62451043775037,Koramangala
557,12.945592544381032,77.74349909722972,Varthur
558,12.894349076378012,77.58545897852669,JP Nagar
559,12.95498066805102,77.71193888926051,Marathahalli
560,12.86730162893203,77.78935852062553,Sarjapur
561,12.934769209705307,77.62497662388311,Koramangala
562,12.913636697295406,77.68436898355867,HSR Layout
563,12.930782943793464,77.63448334190923,HSR Layout
564,13.002133135908602,77.65678922174212,Krishnarajapura
565,12.881309810038282,77.58301647929478,JP Nagar
566,12.928169168297549,77.62560003806459,HSR Layout
567,12.902004314616244,77.58700576982362,JP Nagar
568,12.891051039796187,77.65777868383637,HSR Layout
569,12.917889971702067,77.60607625308457,Koramangala
570,12.927354865673179,77.6011167326551,Koramangala
571,12.927776161363068,77.64392704255988,HSR Layout
572,12.961411230455933,77.5949337685013,Koramangala
573,12.887643090594675,77.62318205429433,HSR Layout
574,12.939005227666307,77.7337244443538,Varthur
575,12.906377397070713,77.64864039965842,Koramangala
576,12.984595506039073,77.66936190633668,Indiranagar
577,12.926867716332143,77.66912980586783,HSR Layout
578,12.967000743229764,77.73306580921958,Marathahalli
579,12.909844529719663,77.61782758426453,Koramangala
580,12.893366315663481,77.64360866721026,HSR Layout
581,12.852882579757987,77.79450667138617,Sarjapur
582,12.885593984438536,77.56068395602088,JP Nagar
583,12.908743816391116,77.61253146822456,HSR Layout
584,12.90315055463764,77.64990350106069,HSR Layout
585,12.9821474380861,77.6851197786739,Indiranagar
586,12.91383399825965,77.62629897946334,HSR Layout
587,12.942660275457655,77.66708128142969,Koramangala
588,12.977313473363465,77.67985843285479,Krishnarajapura
589,12.936037906092716,77.75119592788847,Varthur
590,12.874939025090475,77.54888196061181,JP Nagar
591,12.954759939066166,77.72069280495758,Marathahalli
592,12.931276433791009,77.68682637365617,HSR Layout
593,12.928334606909926,77.57757954161252,JP Nagar
594,13.018701093562594,77.69254293311053,Krishnarajapura
595,12.896407605170769,77.63547488243313,HSR Layout
596,12.872664061644233,77.79406051304719,Sarjapur
597,12.875553918465338,77.58852555444481,JP Nagar
598,12.900055577217776,77.60847970284638,JP Nagar
599,12.956478486892,77.68638453639889,Marathahalli
600,12.956959937047797,77.69904069788221,Marathahalli
601,12.995274290045291,77.67874831832333,Krishnarajapura
602,12.97895501506319,77.63728359470798,Indiranagar
603,12.93243102442813,77.60899007246523,Koramangala
604,12.900839137049912,77.67409828130481,HSR Layout
605,12.839059540386375,77.79169165160182,Sarjapur
606,12.933668498210562,77.63752453049703,Koramangala
607,12.955362542358705,77.67580694222498,Marathahalli
608,12.92281857769723,77.62605366886719,HSR Layout
609,12.895870729758451,77.55865456134539,JP Nagar
610,12.906683065780847,77.68719186942215,HSR Layout
611,12.925097735557403,77.59374486289326,Koramangala
612,12.89631737940799,77.56458335146097,JP Nagar
613,12.962882459453539,77.69780642582643,Marathahalli
614,12.896058586905491,77.58315465221531,JP Nagar
615,12.848759962299201,77.79187206942525,Sarjapur
616,12.935234450317312,77.59990802233007,Koramangala
617,12.887609085390785,77.59779547788828,JP Nagar
618,12.832926078507127,77.76069271289192,Sarjapur
619,12.903103010852425,77.58642035750398,JP Nagar
620,12.868249485367397,77.80887532681038,Sarjapur
621,12.856235570104595,77.81353962862333,Sarjapur
622,12.886754273302998,77.54110873249519,JP Nagar
623,12.943431974891189,77.69891240831531,Marathahalli
624,12.909189929487873,77.56650781575298,JP Nagar
625,12.950448982588743,77.61911501216524,Koramangala
626,12.906447949254526,77.58950409381916,JP Nagar
627,12.89156491508523,77.67139492796719,HSR Layout
628,12.986391970756308,77.67485263129231,Krishnarajapura
629,12.933652692867085,77.65701589772678,HSR Layout
630,12.921908352855022,77.64264532071215,HSR Layout
631,12.85631037811434,77.79723697844067,Sarjapur
632,12.889864858067684,77.64320380323291,HSR Layout
633,12.832532371837724,77.79354181405037,Sarjapur
634,12.864155362918963,77.74579926690316,Sarjapur
635,12.92199410778454,77.54913940096966,JP Nagar
636,12.904758675524208,77.64070726602709,HSR Layout
637,12.979586572235911,77.70607776032178,Marathahalli
638,12.878208338916334,77.6542264135178,HSR Layout
639,12.919959560563557,77.68354298632977,HSR Layout
640,12.892839203946727,77.65597631665848,HSR Layout
641,12.940967942467276,77.65304045845085,Koramangala
642,12.880270157777597,77.57412699833728,JP Nagar
643,12.905428950402598,77.66238736722157,HSR Layout
644,12.987396314093896,77.6959807982783,Krishnarajapura
645,12.876311427888837,77.60334558812121,JP Nagar
646,12.97990184066284,77.64938456498702,Indiranagar
647,12.967398096851918,77.63089617308721,Koramangala
648,12.97128423463586,77.64069072637774,Indiranagar
649,12.843940526734633,77.77503745900792,Sarjapur
650,12.936522148656703,77.62511640355159,Koramangala
651,12.948099003196324,77.60430346449095,Koramangala
652,12.884009677958296,77.6068106007822,JP Nagar
653,12.941044422357244,77.68192428688556,Marathahalli
654,12.967253545076328,77.65612187482675,Marathahalli
655,12.912149338372467,77.6376169680325,Koramangala
656,12.925356770830533,77.63594792721075,Koramangala
657,12.948554196648605,77.72010457850483,Marathahalli
658,12.961287467177188,77.6742143765134,Marathahalli
659,12.93551604093474,77.70831585545945,Marathahalli
660,13.013621566254542,77.67995320297055,Krishnarajapura
661,12.954535212078811,77.66279530395356,Koramangala
662,12.873497091669885,77.55035191461961,JP Nagar
663,12.924174788462368,77.66441998090323,Koramangala
664,12.955064893977237,77.69287729088096,Varthur
665,12.955756598862996,77.68640501006642,Marathahalli
666,12.958629737150323,77.63187860870501,Indiranagar
667,12.941574722852364,77.62684935043653,Koramangala
668,12.905077748853522,77.55958200968847,JP Nagar
669,13.000581210915312,77.67487392209293,Krishnarajapura
670,12.971224712921154,77.67973106202392,Marathahalli
671,13.0106151303196,77.68613901912612,Marathahalli
672,12.919209104677053,77.60803593529303,Koramangala
673,12.872607938506377,77.57688469515726,JP Nagar
674,12.979746878066223,77.74263300418622,Marathahalli
675,12.864699246002276,77.77772754901115,Sarjapur
676,12.956889135924676,77.69725997805325,Marathahalli
677,12.901325564532138,77.65831131851284,HSR Layout
678,12.89876886723002,77.56686650178071,JP Nagar
679,12.916229976158697,77.62727991571703,HSR Layout
680,12.95237452560944,77.67792747685147,Marathahalli
681,12.907619512452715,77.6380888957588,HSR Layout
682,12.941248801664207,77.59711867089706,Koramangala
683,12.858784433977688,77.77945230011055,Sarjapur
684,12.915538810100491,77.66527206904014,HSR Layout
685,12.914144264222745,77.66059445194519,HSR Layout
686,12.921008480202412,77.57683003741026,Koramangala
687,12.92128881393768,77.61670006131514,HSR Layout
688,12.87751165548049,77.78456826010833,Sarjapur
689,12.899625027100011,77.6502124842454,HSR Layout
690,12.883843884673269,77.60650699457592,JP Nagar
691,12.935840135636187,77.62854814416968,HSR Layout
692,12.923228577081733,77.67692646941174,Koramangala
693,12.982512889646609,77.70068969753433,Marathahalli
694,12.97977842029381,77.72031280795058,Marathahalli
695,12.88911454625052,77.59279698130806,JP Nagar
696,12.898724515808432,77.63796416119628,HSR Layout
697,13.01369567344241,77.67331209626502,Krishnarajapura
698,12.996426767117555,77.6895388807944,Krishnarajapura
699,12.862769483868929,77.73001741047504,Sarjapur
700,12.874797827671054,77.66705454367869,HSR Layout
701,12.934910190347997,77.6337276018156,Koramangala
702,12.977911836226657,77.63612255745947,Indiranagar
703,12.923872574657349,77.63824123185539,Koramangala
704,12.914889082776478,77.65495874815207,HSR Layout
705,12.872924561063668,77.59093703286007,JP Nagar
706,13.011227447525789,77.68770402424535,Krishnarajapura
707,12.929976782233904,77.64152830612373,Koramangala
708,12.963231073012679,77.61546310688095,Koramangala
709,12.927360127769798,77.65014574049388,HSR Layout
710,12.899935297252918,77.56623058030112,JP Nagar
711,12.91525501836666,77.63408313878958,HSR Layout
712,12.996342976650311,77.62600869233722,Indiranagar
713,12.909256594092408,77.62493174605308,HSR Layout
714,13.02681748025947,77.67238126521512,Krishnarajapura
715,12.979797028483533,77.73789684401531,Marathahalli
716,12.90681365035121,77.63478363475076,Koramangala
717,12.933909401714764,77.59594137144825,Koramangala
718,12.912937260153832,77.6440746916327,HSR Layout
719,12.900173799226867,77.59427447369872,JP Nagar
720,12.887318587434883,77.54905940980102,JP Nagar
721,12.903952625999308,77.59498899345253,JP Nagar
722,12.944186361116461,77.60589606098758,Koramangala
723,12.92225683172418,77.6776542737356,HSR Layout
724,12.857376563964781,77.76680428740457,Sarjapur
725,12.956793819010047,77.69418708412897,Varthur
726,12.919317715152307,77.63828150557664,Koramangala
727,12.913509969421579,77.62815094183402,Koramangala
728,12.962938582808128,77.62817820893535,Koramangala
729,12.904297019361874,77.67621191534087,HSR Layout
730,12.904366845950843,77.61184110418571,HSR Layout
731,12.946892838797273,77.74285603130267,Varthur
732,12.870415607608445,77.77122639284441,Sarjapur
733,12.953813493557433,77.61335348388533,Koramangala
734,12.878421810400585,77.7920638895713,Sarjapur
735,12.962181172213544,77.70062211754355,Marathahalli
736,13.016666187423866,77.64401932628519,Krishnarajapura
737,12.907931276766867,77.64943771293628,HSR Layout
738,12.93897342150567,77.69223802528569,Marathahalli
739,13.003687703609499,77.65004351375038,Krishnarajapura
740,12.951255028286017,77.69830932115053,Marathahalli
741,12.960879301189008,77.6857138585093,Marathahalli
742,12.924682820791467,77.63656302112699,Koramangala
743,12.920157281345292,77.62836786315576,HSR Layout
744,12.912507840663027,77.62267671801044,Koramangala
745,12.878544972933684,77.62560164819278,HSR Layout
746,12.895509404819379,77.65032831597897,HSR Layout
747,12.924454359944376,77.69501015777543,HSR Layout
748,12.896139218059655,77.67481587264326,HSR Layout
749,12.901472558192209,77.58103148224833,JP Nagar
750,12.948189116355675,77.63892887515206,Koramangala
751,12.87295806827698,77.80992776417469,Sarjapur
752,12.92796101363488,77.62207791782369,Indiranagar
753,12.877568216460471,77.83277806902885,Sarjapur
754,12.920715920717571,77.63473064551758,Koramangala
755,12.87537742652647,77.78146928617122,Sarjapur
756,12.973296010686948,77.71866888866886,Krishnarajapura
757,12.83501375455603,77.8041670824222,Sarjapur
758,12.875150851265337,77.5809307197041,JP Nagar
759,12.887883315693085,77.6564665862953,HSR Layout
760,12.896821537528645,77.63997287795983,HSR Layout
761,12.870510967543623,77.80390746744709,Sarjapur
762,13.005743947945554,77.70165892321334,Krishnarajapura
763,12.914258031256368,77.61451746857736,Koramangala
764,12.871948648994795,77.58602697463282,JP Nagar
765,12.933622815253027,77.75073536788882,Varthur
766,12.873154260323437,77.79359818953816,Sarjapur
767,12.924452897791655,77.64275598746735,HSR Layout
768,12.953020083073913,77.64105700521935,Koramangala
769,12.880295790530377,77.57865392551913,JP Nagar
770,12.855165865415874,77.78727057821466,Sarjapur
771,12.920565015174013,77.57058679277299,JP Nagar
772,12.912360972968923,77.63785481981832,Koramangala
773,12.9030261970546,77.59085684827998,JP Nagar
774,12.872993962613553,77.61025810230888,JP Nagar
775,13.03771128709282,77.67880012330399,Krishnarajapura
776,12.864072144247979,77.77275059619016,Sarjapur
777,12.923194855480451,77.62857753397181,HSR Layout
778,12.957130578650771,77.60574714781193,Koramangala
779,12.936941622373151,77.60553109226379,Koramangala
780,12.932157610023536,77.62335761510965,Koramangala
781,12.913599330139455,77.6709687066605,HSR Layout
782,12.895905834945975,77.58075136276966,JP Nagar
783,12.90375631894832,77.61927611608301,JP Nagar
784,12.93170929944247,77.5758051220017,Koramangala
785,12.96248180589687,77.70941015649147,Marathahalli
786,12.887674777670501,77.58395216383235,JP Nagar
787,13.019239800845288,77.70074487612591,Krishnarajapura
788,12.961210401141958,77.67782462949356,Marathahalli
789,12.924505233815358,77.65230558535157,HSR Layout
790,12.866538087608335,77.57072795396556,JP Nagar
791,12.940485864310032,77.70154654082977,Marathahalli
792,12.95191212508794,77.61623687124926,Koramangala
793,13.007174564751754,77.69502973747862,Krishnarajapura
794,12.928678773512928,77.6758812431706,HSR Layout
795,12.927959084043767,77.6499642581916,Koramangala
796,12.828432772633883,77.79521374491564,Sarjapur
797,12.868990809435024,77.5843083487658,JP Nagar
798,12.876167779085577,77.58623722699487,JP Nagar
799,12.924045920963403,77.6403495400071,Koramangala
800,13.017678702715648,77.66307418867191,Krishnarajapura
801,12.920238960251357,77.60052759081455,JP Nagar
802,12.905721793721538,77.62786649637658,Koramangala
803,12.96802843632536,77.66925807685679,Marathahalli
804,12.91291424284767,77.58977857604063,JP Nagar
805,13.003039585407818,77.71265784937174,Krishnarajapura
806,12.99212409616578,77.60891963767345,Indiranagar
807,12.849408491325347,77.57985666173711,JP Nagar
808,12.971676470877236,77.67255944050181,Marathahalli
809,12.970096748906567,77.61874936599936,Indiranagar
810,12.9264681876945,77.63073035297268,HSR Layout
811,12.930806250007022,77.6382602144213,HSR Layout
812,13.01167840472843,77.71356768009186,Krishnarajapura
813,12.925306319524285,77.6217843265389,Koramangala
814,12.887305109256348,77.57592684904208,JP Nagar
815,12.94806408210747,77.63442848138152,Koramangala
816,12.878847606213554,77.60664018550943,JP Nagar
817,12.918878365014189,77.65862215705053,HSR Layout
818,12.860613616257634,77.76122854565583,Sarjapur
819,12.94829638692225,77.63563467511007,Koramangala
820,12.983762124176478,77.70247218193947,Marathahalli
821,12.875671549897623,77.56560801490818,JP Nagar
822,12.87012333319137,77.79875474684317,Sarjapur
823,12.920044691684932,77.59115685055289,JP Nagar
824,12.976463362561933,77.65869064536649,Indiranagar
825,12.91581563152454,77.60554932336572,JP Nagar
826,12.950316441038192,77.61036981894723,Indiranagar
827,12.96806959576877,77.71469393187182,Marathahalli
828,12.886968324574168,77.61088961156752,JP Nagar
829,12.900360396426526,77.58747308854993,JP Nagar
830,12.932828739925556,77.64801596961279,HSR Layout
831,12.8906207828804,77.6612044818207,HSR Layout
832,12.969207479697323,77.682453455596,Indiranagar
833,12.949421291870333,77.72180603904278,Marathahalli
834,13.004905301377724,77.6801261786224,Krishnarajapura
835,12.955008466308675,77.70695080978636,Marathahalli
836,12.866832831629267,77.78522520269848,Sarjapur
837,12.896513534101826,77.57543635696736,JP Nagar
838,12.964925472573189,77.62323327775692,Indiranagar
839,12.90975593698838,77.61749014937214,Koramangala
840,12.913512914935874,77.64438538240829,HSR Layout
841,13.03262103678628,77.68992898687766,Krishnarajapura
842,12.91765213138278,77.62620224846479,Koramangala
843,12.998323000033865,77.71390329998978,Krishnarajapura
844,12.902445313245162,77.57322912438293,JP Nagar
845,12.874669695179469,77.56240289935153,JP Nagar
846,12.880351552908566,77.58548444789156,JP Nagar
847,12.925412011107987,77.6390638173349,HSR Layout
848,12.976732951825012,77.76619860593135,Varthur
849,13.009566798758696,77.70697124049065,Krishnarajapura
850,12.911896264754963,77.59790207040373,JP Nagar
851,12.948283836215108,77.65555595584469,Koramangala
852,12.839287619502612,77.82545979849615,Sarjapur
853,12.89028028134718,77.61314097309818,JP Nagar
854,12.938088855213103,77.61019509678438,Koramangala
855,12.934919204858845,77.67248228116064,Marathahalli
856,12.937697839815673,77.63207213237897,Koramangala
857,12.926785586916287,77.64431416299433,Koramangala
858,12.90550198624527,77.66170165970019,HSR Layout
859,12.86285494647704,77.7994870329135,Sarjapur
860,12.955717096103102,77.63166126745513,Koramangala
861,12.902269724402617,77.54445722732011,JP Nagar
862,12.918652909427145,77.65792717921519,Koramangala
863,12.930740957984732,77.6343591736185,HSR Layout
864,12.963722066408675,77.66943458220858,Marathahalli
865,12.850133293007268,77.8366875464441,Sarjapur
866,12.883116796538937,77.58390691880663,JP Nagar
867,12.921193726263967,77.65486610635884,Koramangala
868,12.898456286044727,77.54923656371629,JP Nagar
869,12.869194307822866,77.58892514369208,JP Nagar
870,12.898063098307137,77.61268474140574,JP Nagar
871,12.893086943806606,77.5860102967668,JP Nagar
872,12.95068876211186,77.63167306832369,Koramangala
873,12.940429293270315,77.61547226426181,Koramangala
874,12.919000926717853,77.58588024797461,JP Nagar
875,12.875233262180402,77.7910471007853,Sarjapur
876,12.962592545430152,77.65454168148023,Indiranagar
877,12.92408111239419,77.68534994506355,HSR Layout
878,12.84350305760825,77.79271705919044,Sarjapur
879,12.905935198915843,77.58974550090058,HSR Layout
880,12.953760837542621,77.69280572201197,Marathahalli
881,12.900479429148428,77.60350588695496,HSR Layout
882,12.826739159779356,77.78112313937947,Sarjapur
883,12.941641226425558,77.58965786344227,Koramangala
884,13.005488984866084,77.70926007759745,Krishnarajapura
885,12.902813316285593,77.56701931617023,JP Nagar
886,13.010438037032234,77.69402010489733,Krishnarajapura
887,12.834609444366073,77.79040257535537,Sarjapur
888,12.910756891776096,77.63370627303848,HSR Layout
889,12.963126117664611,77.6796423221556,Marathahalli
890,12.942864468397072,77.60949286140338,Koramangala
891,12.872232120962458,77.79877581203095,Sarjapur
892,12.912374132944672,77.69626850382399,HSR Layout
893,12.97370047687675,77.6923517422856,Marathahalli
894,12.866207421297723,77.79432564000955,Sarjapur
895,12.905195456721605,77.58010601331844,JP Nagar
896,12.896587534573262,77.57484964538801,JP Nagar
897,12.877490153569747,77.57940245971558,JP Nagar
898,12.916304640533385,77.57238802549888,JP Nagar
899,12.844311808592886,77.79144548450164,Sarjapur
900,12.903730910303546,77.55980651413347,JP Nagar
901,12.955488783391365,77.60184698869382,Koramangala
902,13.013146314913584,77.72173006670063,Krishnarajapura
903,12.934533580376405,77.6346144461329,Koramangala
904,12.912405979895368,77.61794171274099,Koramangala
905,12.874494602307262,77.56879498864068,JP Nagar
906,12.919413779253665,77.6000628883903,Koramangala
907,12.963390713458102,77.68631175207871,Indiranagar
908,12.955129629408669,77.60162142352355,Koramangala
909,12.986280943083333,77.62863413892048,Indiranagar
910,12.886358464368984,77.59795577409513,JP Nagar
911,12.967585843250943,77.63446706716104,Indiranagar
912,12.933036783080727,77.63643493769627,Koramangala
913,12.917816847480045,77.61252379803484,HSR Layout
914,12.884491102567736,77.54262953198352,JP Nagar
915,12.867577368078404,77.81296729017872,Sarjapur
916,12.951593863606297,77.64564408019622,Koramangala
917,12.895428533077046,77.68690156233461,HSR Layout
918,12.944424383704433,77.71141770242461,Marathahalli
919,12.926579738453158,77.62551060127232,Koramangala
920,12.972169840380749,77.68949477916448,Marathahalli
921,12.833428340632375,77.78834064674906,Sarjapur
922,12.860917000352314,77.82246098472616,Sarjapur
923,12.887991352463805,77.59884824487659,JP Nagar
924,12.909090510638212,77.67828860891306,HSR Layout
925,12.84307891929405,77.83643668777836,Sarjapur
926,12.940608450540564,77.73627749900685,Varthur
927,12.945981560757442,77.59951501921753,Koramangala
928,12.924782629644197,77.75976163514173,Varthur
929,12.905881820142243,77.71927844371075,HSR Layout
930,12.938839228912594,77.65269204690006,Koramangala
931,12.89665186721093,77.58275071909254,JP Nagar
932,12.938375627071864,77.6064686570322,Koramangala
933,12.957163944205837,77.69732472684251,Marathahalli
934,12.90603285271824,77.5796100879847,JP Nagar
935,12.976853601119174,77.65339660783023,Indiranagar
936,12.908245398592722,77.66348644904191,Koramangala
937,12.933054870381822,77.73204741704619,Varthur
938,13.019486511814902,77.69856126053986,Krishnarajapura
939,12.89610130691833,77.55515737124254,JP Nagar
940,12.88969148657641,77.55621562035572,JP Nagar
941,12.94633721610044,77.59649028113,Koramangala
942,12.898102125139568,77.62617511223539,HSR Layout
943,12.864822553630905,77.76938729430186,Sarjapur
944,12.977313735483934,77.61425330262279,Indiranagar
945,12.935041447820609,77.60353806927942,Koramangala
946,12.9176222686604,77.63608887345218,Koramangala
947,12.9989987877506,77.67071654624755,Krishnarajapura
948,12.96352598570535,77.68064281255582,Marathahalli
949,12.958374984964264,77.68424674720175,Marathahalli
950,12.830634005386894,77.77506141857538,Sarjapur
951,12.835706476390657,77.7954707112998,Sarjapur
952,12.889091323533275,77.55742157556466,JP Nagar
953,12.909772887324284,77.62325908932216,JP Nagar
954,12.94202549278256,77.61025043886605,Koramangala
955,12.869551058530142,77.7823939623782,Sarjapur
956,12.890642533164428,77.5656878527541,JP Nagar
957,12.895721869304571,77.62650558555136,HSR Layout
958,12.958855274343279,77.6821863278027,Marathahalli
959,12.935505488069111,77.62508186052655,Koramangala
960,12.895743780699988,77.59444874292423,JP Nagar
961,12.903652623775981,77.58100532257849,JP Nagar
962,12.920603434572742,77.66018570328626,HSR Layout
963,12.900877412934367,77.59349969930464,JP Nagar
964,12.889705650982629,77.55528253158938,JP Nagar
965,12.9238811921695,77.65550627150785,Koramangala
966,12.851717117770612,77.78029628454456,Sarjapur
967,12.937756779773597,77.64031759527222,Koramangala
968,12.896761207098724,77.55015858745512,JP Nagar
969,12.874874272050754,77.60104328921459,JP Nagar
970,12.88781306758564,77.57820393095281,JP Nagar
971,12.88108300167217,77.59211678176777,JP Nagar
972,12.850608284439184,77.80262718297095,Sarjapur
973,12.852289195419974,77.81859682639877,Sarjapur
974,12.911134425569914,77.58856218513624,JP Nagar
975,12.906902411322129,77.56927221065179,JP Nagar
976,12.944477523299344,77.61993665681263,Koramangala
977,12.94401998685334,77.6182855786438,Koramangala
978,12.925284913749078,77.69710888760557,Marathahalli
979,13.010325351652446,77.64858193718621,Krishnarajapura
980,12.942829732715945,77.67121843871864,Koramangala
981,12.948600651737216,77.6335244828778,Koramangala
982,12.951561702908966,77.68287758889456,Koramangala
983,12.912371980035362,77.63034893496835,HSR Layout
984,12.916320177283366,77.62382765246053,Koramangala
985,12.857021007039355,77.78728072187027,Sarjapur
986,12.86355407999138,77.81375505388806,Sarjapur
987,12.935787070333385,77.58871549549195,Koramangala
988,12.939650356933397,77.59897665354195,Koramangala
989,13.021616187435868,77.65846642170767,Krishnarajapura
990,12.960208689078806,77.73311780348283,Marathahalli
991,12.89297751645349,77.5923249803832,JP Nagar
992,12.918393077014269,77.65364028246807,HSR Layout
993,12.901643979254047,77.55974693178146,JP Nagar
994,13.046815728088212,77.67791288869422,Krishnarajapura
995,12.9325390474043,77.65022597955604,Koramangala
996,12.944815425714259,77.70293723596899,Marathahalli
997,12.941684617091562,77.60742313003101,Koramangala
998,12.951721724126838,77.7461790014262,Varthur
999,12.837170381255635,77.81829095714997,Sarjapur
1000,12.991277170011225,77.65247246932432,Indiranagar
